,Time_(s),Total_Forces,Left_Forces,Right_Forces,Back_Forces,Front_Forces,LC1,LC2,LC3,LC4
0,0.0,0.005819945131130683,-0.050855908023068275,0.056675853154198944,-0.03996207841805263,0.045782023549183315,-0.06251958146905259,0.022557503050999957,0.03411835010319899,0.011663673445984322
1,0.011991500854492188,0.056026763220432645,-0.016350167445609368,0.072376930666042,0.0015282646646131229,0.05449849855581952,-0.05006973061148362,0.05159799527609674,0.02077893538994527,0.03371956316587425
2,0.024025678634643555,0.003376248495263884,-0.04761334235575482,0.0509895908510187,-0.056205894956868035,0.05958214345213192,-0.08254381711409361,0.026337922157225576,0.024651668693793125,0.0349304747583388
3,0.0359950065612793,0.08119393941090021,-0.01879484491523697,0.09998878432613717,0.019527383945662904,0.061666555465237305,-0.04031879847128973,0.05984618241695264,0.04014260190918454,0.02152395355605276
4,0.04817056655883789,0.04252994276560529,-0.03476580974459369,0.07729575251019898,-0.018649688525275085,0.061179631290880374,-0.0621713338926171,0.043521645367342016,0.03377410714285696,0.02740552414802341
5,0.060446977615356445,-0.0014766793737451198,-0.062375478001600836,0.060898798627855716,-0.04600839332722556,0.04453171395348044,-0.06495731450410107,0.018948921176875504,0.04194987745098021,0.0025818365025002316
6,0.07251620292663574,0.008227766995969152,-0.064858541823891,0.07308630881986014,-0.04862544825574715,0.0568532152517163,-0.0875934069724083,0.03896795871666116,0.03411835010319899,0.022734865148517306
7,0.08444976806640625,-0.05528451761585171,-0.08505860588394826,0.029774088268096546,-0.10680326581753811,0.05151874820168641,-0.10805295208799369,0.0012496862704555684,0.028524401997640978,0.022994346204045425
8,0.09637689590454102,0.022167433077095157,-0.056864315134446244,0.07903174821154141,-0.03411486665270118,0.056282299729796335,-0.06870097595078264,0.034586109298081466,0.044445638913459935,0.0118366608163364
9,0.11083388328552246,0.00882113603445335,-0.05730619125741441,0.06612732729186777,-0.06489704899131894,0.07371818502577229,-0.0966478439597312,0.03175079496841225,0.034376532323455514,0.039341652702316786
10,0.13542866706848145,0.061155848336537,-0.03471751198530271,0.09587336032183971,-0.0042900196259236315,0.06544586796246063,-0.05477107289336281,0.05048105326743918,0.045392307054400526,0.0200535609080601
11,0.1852257251739502,0.021680327242897715,-0.05267713743739039,0.0743574646802881,-0.03885930797743807,0.060539635220335786,-0.08976995432513016,0.05091064634769209,0.023446818332596014,0.03709281688773977
12,0.1971733570098877,0.006380319696181427,-0.06281748005195412,0.06919779974813554,-0.03116584951022499,0.03754616920640642,-0.07967077460850078,0.04850492509827579,0.02069287464985976,0.016853294556546657
13,0.20909547805786133,-0.057989018001879056,-0.09721955474886682,0.03923053674698777,-0.09530634992125489,0.037317331919375835,-0.10274217654735238,0.007435826626097488,0.03179471012089028,0.005522621798485556
14,0.2210235595703125,-0.025810534471795057,-0.07721678511588842,0.051406250644093376,-0.06467359148491596,0.0388630570131209,-0.09925970078299742,0.034586109298081466,0.016820141346011907,0.022042915667108996
15,0.23299932479858398,0.010377093581696827,-0.043293455623185775,0.0536705492048826,-0.0383400869772949,0.04871718055899173,-0.05677349645786691,0.01843340948057201,0.03523713972431059,0.013480040834681139
16,0.2449188232421875,0.010326563757277224,-0.05123641758129026,0.06156298133856748,-0.0474227603927177,0.057749324149994924,-0.08106376491424276,0.03364100452152506,0.027921976817042424,0.029827347332952503
17,0.25684642791748047,0.026891697318502078,-0.04592179050550421,0.07281348782400629,-0.014092572040419346,0.040984269358921424,-0.06191014821029048,0.04781757616987113,0.024995911654135155,0.01598835770478627
18,0.26875948905944824,-0.012072643767236643,-0.06701577007289646,0.05494312630565981,-0.05729293897433132,0.045220295207094675,-0.08680984992542844,0.029516910951097118,0.025426215354562694,0.01979407985253198
19,0.2806732654571533,0.02428276922684202,-0.03113635829341195,0.05541912752025397,-0.02200931525235672,0.04629208447919874,-0.07592711316181919,0.05391779790946247,0.0015013296107915033,0.04479075486840724
20,0.2926514148712158,0.028560880522121516,-0.039623661337772745,0.06818454185989427,-0.02761380654599293,0.056174687068114446,-0.06434788124533895,0.036734074699346024,0.031450467160548244,0.024724219907566205
21,0.30457401275634766,0.01982431488472574,-0.04629889081012919,0.06612320569485493,-0.04568952545694826,0.065513840341674,-0.0799319602908274,0.03424243483387914,0.031880770860975786,0.03363306948069821
22,0.3190164566040039,0.028875779335033182,-0.0285611186966174,0.057436898031650585,-0.021700630176617944,0.05057640951165113,-0.05242040175242321,0.030719771575805268,0.026717126455845314,0.023859283055805813
23,0.33346009254455566,-0.03522460926682467,-0.08057583361443307,0.045351224347608396,-0.09591938577587059,0.060694776509045915,-0.09708315343027557,0.0011637676544049862,0.04418745669320341,0.016507319815842504
24,0.35042381286621094,-0.019659239695074292,-0.057162876678954866,0.03750363698388058,-0.07706908328072302,0.05740984358564873,-0.0879416545488438,0.010872571268120777,0.026631065715759804,0.03077877786988893
25,0.3624248504638672,-0.0019021972960362316,-0.06452178435349733,0.0626195870574611,-0.0565463123485742,0.05464411505253797,-0.07575298937360145,0.019206677025027253,0.04341291003243384,0.011231205020104126
26,0.3743443489074707,0.012664676044109022,-0.05138724480326176,0.06405192084737078,-0.03990325295204365,0.052567928996152674,-0.07766835104399666,0.03776509809195301,0.026286822755417775,0.026281106240734903
27,0.38625431060791016,-0.049085812510808124,-0.08571974615559838,0.036633933644790256,-0.10021365501530531,0.05112784250449719,-0.11658501771066335,0.01637136269535804,0.02026257094943222,0.03086527155506497
28,0.39817237854003906,0.01970814427795979,-0.06204869643722796,0.08175684071518774,-0.029123238452001973,0.048831382729961764,-0.08115082680835163,0.05202758835634966,0.02972925235883809,0.019102130371123672
29,0.4101138114929199,-0.006811931980969861,-0.05148043106824671,0.044668499087276846,-0.042238715954868056,0.035426783973898195,-0.091946501677852,0.04970778572298394,-0.005039286635707096,0.04046607060960529
30,0.4220924377441406,0.06202274228697513,-0.02685340514147719,0.08887614742845232,0.010560181614127591,0.05146256067284754,-0.0558158156226693,0.0663759972367969,0.022500150191655428,0.02896241048119211
31,0.4340341091156006,0.04442324784018649,-0.040160806134679705,0.0845840539748662,-0.007373598055920867,0.051796845896107356,-0.06713386185682292,0.059760263800902054,0.02482379017396414,0.026973055722143216
32,0.44596004486083984,-0.01581874703947969,-0.06226417355015756,0.04644542651067786,-0.08488618853991031,0.06906744150043062,-0.10091387677106603,0.01602768823115571,0.03041773827952215,0.03864970322090847
33,0.45789098739624023,0.011732108852480487,-0.06685881848004888,0.07859092733252937,-0.03507008817010352,0.04680219702258401,-0.07601417505592807,0.04094408688582455,0.03764684044670481,0.009155356575879191
34,0.4698154926300049,-0.033557992110508625,-0.0668301561786369,0.03327216406812828,-0.0784916260543019,0.04493363394379328,-0.09812789615958206,0.019636270105280164,0.013635893962848115,0.03129773998094516
35,0.48178625106811523,0.04018513997446352,-0.038508902982342434,0.07869404295680596,-0.035194080485435125,0.07537922045989864,-0.0658279334451898,0.030633852959754685,0.04806018999705127,0.027319030462847373
36,0.4937608242034912,-0.0018131480663714714,-0.06768044552552868,0.0658672974591572,-0.04976314203113266,0.04794999396476119,-0.08263087900820248,0.03286773697706982,0.03299956048208739,0.014950433482673801
37,0.5056848526000977,-0.007784961435930979,-0.04948766705560081,0.041702705619669836,-0.06972581342270463,0.061940851986773654,-0.09142413031319876,0.021698316890494136,0.020004388729175697,0.04193646325759796
38,0.5176033973693848,0.02991567451135744,-0.05183505487032851,0.08175072938168594,-0.024296933338411576,0.054212607849769015,-0.08001902218493627,0.055722088846524694,0.02602864053516125,0.02818396731460776
39,0.5295283794403076,-0.03543051222862849,-0.07283288120068653,0.03740236897205803,-0.0833728085146903,0.04794229628606181,-0.10343867170022338,0.020065863185533075,0.017336505786524955,0.030605790499536854
40,0.5414872169494629,0.059680137980675584,-0.024674584953024003,0.08435472293369958,-0.010972235950878088,0.07065237393155367,-0.05329102069351196,0.04231878474263387,0.042035938191065714,0.028616435740487955
41,0.5534451007843018,0.029461545717751392,-0.05686475741599397,0.08632630313374536,-0.03497713712402448,0.06443868284177587,-0.08202144574944037,0.04704430862541589,0.03928199450832946,0.0251566883334464
42,0.5653629302978516,0.035731018984667635,-0.018791183806869734,0.05452220279153737,-0.04241696062397549,0.07814797960864313,-0.06626324291573418,0.02384628229175869,0.030675920499778676,0.04747205910886445
43,0.5772919654846191,0.05435174581109488,-0.045541029092511995,0.09989277490360687,-0.003972295033704609,0.05832404084479949,-0.069832780574198,0.0658604855404934,0.034032289363113484,0.024291751481686007
44,0.5892198085784912,-0.01054212677946411,-0.05266817202185013,0.042126045242386015,-0.049235227037866654,0.038693100258402544,-0.07514355611483932,0.025908329076972665,0.01621771616541335,0.02247538409298919
45,0.6011626720428467,0.054460626568657536,-0.006255533400442659,0.060716159969100195,-0.015360147283106636,0.06982077385176418,-0.040667046047725225,0.02530689876461859,0.03540926120448161,0.034411512647282566
46,0.6207284927368164,-0.004693693265680511,-0.044355812829410146,0.039662119563729635,-0.05385459882290625,0.049160905557225736,-0.060517157904548494,0.006662559081642248,0.03299956048208739,0.016161345075138348
47,0.6301336288452148,-0.002571789006089495,-0.06929756200557789,0.0667257729994884,-0.05770292356591457,0.055131134559825073,-0.09185943978374313,0.03415651621782856,0.032569256781659846,0.02256187777816523
48,0.6420581340789795,-0.06371105727746307,-0.07961430124409072,0.015903243966627657,-0.07192557185994972,0.008214514582486645,-0.08228263143176699,0.010357059571817283,0.005546184394810374,0.0026683301876762704
49,0.6539857387542725,-0.001080017838069297,-0.06882658129965004,0.06774656346158074,-0.03133214311371339,0.030252125275644096,-0.07270582307979086,0.041373679966077465,0.02637288349550328,0.003879241780140816
50,0.6659204959869385,-0.0005480637440219774,-0.079286951470785,0.07873888772676302,-0.04283883022748514,0.042290766483463166,-0.09838908184190867,0.05555025161442353,0.02318863611233949,0.019102130371123672
51,0.6778960227966309,0.028266743462769785,-0.04515300689077805,0.07341975035354784,-0.017892426873635923,0.04615917033640571,-0.06339020041014133,0.04549777353650541,0.027921976817042424,0.01823719351936328
52,0.6898031234741211,0.032195323518225516,-0.06701337130978,0.09920869482800551,-0.03649800181061644,0.06869332532884195,-0.09969501025354179,0.06319700844292535,0.03601168638508016,0.03268163894376179
53,0.7017216682434082,-0.00024437811439386586,-0.0489949684828401,0.04875059036844624,-0.05499846121992673,0.05475408310553286,-0.08219556953765812,0.027197108317731398,0.02155348205071484,0.03320060105481802
54,0.7136397361755371,0.011513106724503931,-0.05306541149389456,0.06457851821839848,-0.03816676094377804,0.049679867668281974,-0.06974571868008914,0.03157895773631109,0.03299956048208739,0.016680307186194582
55,0.7255518436431885,0.006245215235572976,-0.052809781973511175,0.05905499720908415,-0.04255855434152497,0.04880376957709795,-0.0835885598434001,0.04103000550187513,0.018024991707209018,0.03077877786988893
56,0.7375285625457764,-0.01418082481087346,-0.06173750836881186,0.047556683557938406,-0.05264681956260754,0.03846599475173408,-0.0732281944444441,0.020581374881836565,0.026975308676101838,0.011490686075632243
57,0.7519733905792236,-0.0031329400574267724,-0.07682636415103802,0.07369342409361127,-0.06956963656006215,0.06643669650263538,-0.1057022809470541,0.03613264438699195,0.03756077970661931,0.028875916796016074
58,0.7664284706115723,-0.03432893804416326,-0.04723611612374473,0.012907178079581482,-0.07710715698000406,0.0427782189358408,-0.07775541293810555,0.0006482559581014928,0.01225892212147999,0.030519296814360813
59,0.7783479690551758,-0.003952678009045751,-0.056599594271137504,0.05264691626209175,-0.06821620875501688,0.06426353074597113,-0.08115082680835163,0.01293461805333475,0.039712298208757005,0.024551232537214127
60,0.7902584075927734,0.010911078541246177,-0.03913809762636866,0.05004917616761484,-0.060160437851311394,0.07107151639255757,-0.08271794090231135,0.022557503050999957,0.027491673116614886,0.04357984327594269
61,0.8022270202636719,-0.03525996263136062,-0.0871151352244568,0.051855172593096174,-0.08176207709283677,0.046502114461476146,-0.10509284768829197,0.023330770595455196,0.028524401997640978,0.017977712463835165
62,0.8141686916351318,0.05493798644190478,-0.03706761491730948,0.09200560135921425,-0.009560780434524734,0.06449876687642951,-0.057034682140193534,0.0474739017056688,0.04453169965354545,0.01996706722288406
63,0.8261110782623291,-0.009087179141295823,-0.047175760049479105,0.03808858090818328,-0.060319699024771356,0.05123251988347553,-0.08176026006711375,0.02144056104234239,0.016648019865840892,0.03458450001763464
64,0.8380265235900879,0.008598780644595364,-0.04849046344987497,0.05708924409447033,-0.02512348272026304,0.0337222633648584,-0.05790530108128228,0.03278181836101924,0.024307425733451092,0.009414837631407309
65,0.8499405384063721,0.007668625476311135,-0.04091197527248797,0.04858060074879911,-0.037046561862624304,0.04471518733893544,-0.06295489093959697,0.025908329076972665,0.022672271671826442,0.022042915667108996
66,0.8619122505187988,-0.016302388863365658,-0.06893580334213947,0.052633414478773816,-0.05509141226600575,0.038789023402640094,-0.07618829884414581,0.02109688657814006,0.03153652790063376,0.007252495502006335
67,0.8738512992858887,0.02402232284595838,-0.061430865971858435,0.08545318881781681,-0.011396910395540437,0.035419233241498815,-0.06600205723340756,0.05460514683786712,0.03084804197994969,0.0045711912615491275
68,0.8857605457305908,-0.047627608158214,-0.07015340751441293,0.02252579935619892,-0.07761775004071697,0.02999014188250297,-0.09046644947800114,0.012848699437284167,0.009677099918914753,0.020313041963588217
69,0.8976790904998779,0.022525338374111956,-0.04782749262404124,0.0703528309981532,-0.035749779675457526,0.05827511804956948,-0.06234545768083485,0.02659567800537732,0.043757152992775876,0.014517965056793607
70,0.9096055030822754,0.01175135300407048,-0.04990195279563028,0.06165330579970076,-0.0575747036617072,0.06932605666577768,-0.0886381497017148,0.031063446040007596,0.030589859759693167,0.038736196906084513
71,0.92156982421875,0.013278065935979542,-0.03358103576303955,0.04685910169901909,-0.040096014712551475,0.05337408064853102,-0.0661761810216253,0.026080166309073827,0.02077893538994527,0.03259514525858575
72,0.9335637092590332,0.07088317707132086,-0.030401919069426124,0.10128509614074697,0.00041721180792572005,0.07046596526339513,-0.056164063199104795,0.056581275007030515,0.04470382113371646,0.02576214412967867
73,0.9455075263977051,-0.005672391145052483,-0.057006935576587835,0.05133454443153536,-0.06464518229513735,0.05897279115008487,-0.09055351137211001,0.025908329076972665,0.025426215354562694,0.03354657579552218
74,0.9574394226074219,0.04571865547000509,-0.05324635378930632,0.0989650092593114,-0.01653127559184741,0.0622499310618525,-0.07096458519761337,0.05443330960576596,0.04453169965354545,0.01771823140830705
75,0.9693634510040283,-0.0009490490138508861,-0.07153774875877728,0.07058869974492639,-0.06370201855134014,0.06275296953748925,-0.10378691927665887,0.04008490072531873,0.03050379901960766,0.03224917051788159
76,0.9812984466552734,0.03708205708033231,-0.026886361259581625,0.06396841833991393,-0.024646842477941466,0.06172889955827378,-0.06086540548098399,0.03621856300304253,0.027749855336871406,0.03397904422140237
77,0.9932761192321777,0.015324111130259797,-0.0663586072637762,0.08168271839403599,-0.03407679295342016,0.049400904083679954,-0.07888721756152091,0.04481042460810075,0.03687229378593524,0.012528610297744712
78,1.0052027702331543,-0.03360350026005798,-0.05725334782666075,0.023649847566602773,-0.07888137716419329,0.04527787690413531,-0.08855108780760591,0.009669710643412625,0.013980136923190147,0.03129773998094516
79,1.0171489715576172,0.012668980205567795,-0.0544868122462783,0.0671557924518461,-0.0411634502413451,0.053832430446912896,-0.07549180369127483,0.034328353449929724,0.03282743900191637,0.02100499144499653
80,1.0291574001312256,0.006291895816911697,-0.06242478625137236,0.06871668206828406,-0.05856799887839055,0.06485989469530225,-0.08576510719612195,0.027197108317731398,0.041519573750552666,0.02334032094474958
81,1.0411221981048584,0.013984566116323746,-0.029216134597391436,0.043200700713715186,-0.046199041293295495,0.06018360740961924,-0.04676137863534641,0.0005623373420509106,0.042638363371664274,0.01754524403795497
82,1.0531089305877686,-0.02090575224262841,-0.0947631967464199,0.0738574445037915,-0.04316798760028709,0.02226223535765868,-0.08419799310216222,0.04103000550187513,0.03282743900191637,-0.01056520364425769
83,1.0650405883789062,0.007955517553221936,-0.028323229580537016,0.03627874713375895,-0.03274165759730756,0.040697175150529494,-0.055728753728560426,0.022987096131252868,0.013291651002506084,0.02740552414802341
84,1.0769646167755127,0.047378802613141785,-0.03223817377077217,0.07961697638391396,-0.014228967652713469,0.061607770265855254,-0.059211229492915386,0.04498226184020192,0.03463471454371204,0.026973055722143216
85,1.088890552520752,0.029923711330645822,-0.047178601094143284,0.07710231242478911,-0.025786131762728773,0.055709843093374595,-0.08219556953765812,0.05640943777492935,0.02069287464985976,0.03501696844351484
86,1.1008329391479492,0.04042538670298925,-0.022843886413621194,0.06326927311661044,-0.02168542203850276,0.06211080874149201,-0.06434788124533895,0.042662459206836194,0.020606813909774254,0.04150399483171776
87,1.112816572189331,-0.0016421241734055347,-0.0722201646157125,0.07057804044230696,-0.042544662243146764,0.04090253806974123,-0.08907345917225916,0.046528796929112395,0.024049243513194568,0.016853294556546657
88,1.1247632503509521,0.0008146213117233639,-0.02463354798247476,0.02544816929419812,-0.045173388767622565,0.04598801007934593,-0.06025597222222187,0.015082583454599304,0.010365585839598816,0.03562242423974711
89,1.1367018222808838,-0.0025286994412624386,-0.06838590609393992,0.06585720665267748,-0.05898581365470315,0.05645711421344071,-0.09795377237136431,0.03896795871666116,0.02688924793601633,0.029567866277424384
90,1.1561965942382812,0.023120350589761467,-0.04265662240826246,0.06577697299802393,-0.029773204727840404,0.05289355531760187,-0.06521850018642769,0.03544529545858729,0.030331677539436643,0.02256187777816523
91,1.1731595993041992,0.06190496487131302,-0.02821724888846485,0.09012221375977787,-0.028953594619462876,0.0908585594907759,-0.07041319320159092,0.04145959858212805,0.048662615177649825,0.04219594431312607
92,1.1876778602600098,0.006825547470382651,-0.05192159053130044,0.05874713800168309,-0.056573046423828086,0.06339859389421074,-0.07560788621675417,0.019034839792926087,0.039712298208757005,0.023686295685453735
93,1.2425434589385986,-0.04099446978969477,-0.06593863943441837,0.024944169644723607,-0.07319491537371749,0.03220044558402272,-0.08080257923191614,0.0076076638581986525,0.017336505786524955,0.014863939797497764
94,1.254462718963623,0.02920241062008806,-0.02677600279922651,0.05597841341931457,-0.02923843006622465,0.05844084068631271,-0.05720880592841129,0.027970375862186637,0.02800803755712793,0.030432803129184775
