,Time_(s),Total_Forces,Left_Forces,Right_Forces,Back_Forces,Front_Forces,LC1,LC2,LC3,LC4
0,0.0,0.025030809564679665,0.009312535129809247,0.01571827443487042,-0.01250898254575014,0.03753979211042981,-0.02621085384041724,0.013701871294667099,0.002016403140203318,0.035523388970226485
1,0.012228250503540039,-0.037365390313581784,-0.028762300824565778,-0.008603089489016004,-0.035656531883163804,-0.0017088584304179805,-0.028909772557792333,-0.006746759325371468,-0.0018563301636445365,0.0001474717332265561
2,0.024566650390625,-0.003003961350090574,-0.013952435628361608,0.010948474278271034,-0.055466801769625554,0.05246284041953498,-0.03918307606263946,-0.016283725706986094,0.027232199985257128,0.025230640434277852
3,0.03665328025817871,0.0258413829012137,0.022593672584716236,0.003247710316497463,0.00305434473301035,0.02278703816820335,-0.00566424683072298,0.00871859156373333,-0.0054708812472358676,0.028257919415439217
4,0.04930853843688965,-0.03343882630284213,-0.043181493201149314,0.009742666898307183,-0.04123777906543047,0.007798952762588338,-0.05154586502609957,0.010308085960669101,-0.0005654190623619183,0.008364371824950256
5,0.0695345401763916,-0.01930150565082954,-0.0009427116165722747,-0.01835879403425727,-0.008567188471626684,-0.010734317179202858,-0.020464768829231556,0.011897580357604872,-0.03025637439186214,0.01952205721265928
6,0.08162426948547363,0.03211327992111278,0.006692597454098222,0.025420682467014556,0.01046884335400024,0.021644436567112537,-0.01680816927665885,0.02727701263065909,-0.0018563301636445365,0.023500766730757072
7,0.09370613098144531,0.05017922898590305,0.03157582111018396,0.01860340787571909,0.044013170226556535,0.006166058759346518,0.005566737509321763,0.038446432717234774,-0.019843024841515684,0.026009083600862203
8,0.1058356761932373,0.024380433589551397,0.030700530570247433,-0.0063200969806960355,0.03505899618500592,-0.010678562595454525,0.01723303131991088,0.017825964865095044,-0.02414606184579108,0.013467499250336554
9,0.1180105209350586,0.04559682479498199,0.02603637372377274,0.019560451071209253,0.023898270091553073,0.02169855470342892,-0.0082761036539892,0.03217437374554227,-0.012613922674333021,0.03431247737776194
10,0.13012433052062988,0.017839400590280094,0.04106556756805123,-0.023226166977771134,0.0039278752232378665,0.013911525367042227,0.015056483967189027,-0.011128608743951161,-0.012097558233819975,0.026009083600862203
11,0.1421802043914795,-0.009567109479551576,-0.0026041483933826187,-0.006962961086168956,-0.04623806823240621,0.036670958752854636,-0.03648415734526437,-0.009753910887141845,0.002790949800972889,0.03388000895188175
12,0.15425848960876465,0.02763773687672164,0.03179053958740323,-0.004152802710681587,-0.006255561546347706,0.033893298423069346,-0.014544560029828126,0.00828899848348042,-0.012441801194162007,0.046335099617231354
13,0.16634917259216309,-0.03479712919621014,2.4686221029683597e-06,-0.03479959781831311,-0.05961542246431373,0.024818293268103583,-0.02142244966442917,-0.03819297279988456,0.003393374981571444,0.02142491828653214
14,0.17845582962036133,0.01050332819629253,-0.0062556340655598175,0.016758962261852348,-0.03046677105502272,0.04097009925131525,-0.039357199850857214,0.008890428795834494,0.007868533466017855,0.033101565785297396
15,0.19053339958190918,-0.011643521602875871,0.0006677122836680309,-0.012311233886543904,-0.02770743136223686,0.01606390975936099,-0.02551435868754625,-0.002193072674690611,-0.010118161211853292,0.02618207097121428
16,0.20263266563415527,-0.014682259732592205,-0.019317316945007365,0.0046350572124151624,-0.03708479104703413,0.022402531314441927,-0.03953132363907496,0.0024465325920408286,0.002188524620374334,0.020214006694067595
17,0.21468830108642578,0.07186387967351075,0.04628429326157327,0.025579586411937482,0.04153067658555599,0.03033320308795476,0.006263232662192755,0.035267443923363236,-0.009687857511425754,0.040021060599380515
18,0.22686409950256348,0.0050104650015671374,0.010610950897930387,-0.005600485896363249,-0.013793534197633107,0.018803999199200245,-0.012803322147650648,-0.0009902120499824599,-0.004610273846380789,0.023414273045581035
19,0.2389540672302246,0.06351887895615399,0.034493309839923054,0.029025569116230936,0.03511667837295661,0.02840220058319738,0.0019971998508579304,0.03311947852209868,-0.004093909405867741,0.032496109989065124
20,0.2511003017425537,0.007521704918532837,0.003936857843439626,0.0035848470750932115,-0.0151987550386589,0.022720459957191737,-0.02821327740492134,0.013014522366262441,-0.00942967529116923,0.03215013524836097
21,0.263225793838501,0.03172621497629613,0.014190716317185253,0.01753549865911088,2.089777589926213e-05,0.03170531720039687,-0.0076666703952270815,0.007687568171126344,0.009847930487984536,0.021857386712412333
22,0.275343656539917,0.018785372729612095,-0.010581454742227433,0.029366827471839527,-0.004607554179914056,0.02339292690952615,-0.03953132363907496,0.034923769459160904,-0.005556941987321376,0.028949868896847527
23,0.28762221336364746,0.015967346308663078,-0.0012261833746645794,0.017193529683327657,-0.0045750901629383915,0.02054243647160147,-0.01088796047725542,0.006312870314317028,0.01088065936901063,0.00966177710259084
24,0.2997405529022217,0.002236512852376065,-0.015376803352794635,0.0176133162051707,-0.019460214737760557,0.021696727590136623,-0.03213106263982067,0.012670847902060113,0.004942468303110586,0.016754259287026035
25,0.31187963485717773,-0.023531557872835656,-0.004590093898834503,-0.018941463974001153,-0.03600689325403718,0.012475335381201522,-0.03596178598061112,-4.5107273426055554e-05,-0.018896356700575098,0.03137169208177662
26,0.32395052909851074,0.02565342494670103,0.018102251253823396,0.007551173692877633,0.003754269720056217,0.021899155226644814,-0.004706565995525366,0.008460835715581583,-0.0009096620227039498,0.022808817249348762
27,0.34110569953918457,0.05091877249366546,0.004436374923394357,0.046482397570271096,0.023341773146829777,0.027576999346835676,-0.01793997390007421,0.04128174704690399,0.0052006505233671094,0.02237634882346857
28,0.35573816299438477,0.014778384181670799,-0.0029082016004420997,0.017686585782112896,0.003595354069953663,0.011183030111717136,-0.01680816927665885,0.020403523346612513,-0.0027169375644996155,0.01389996767621675
29,0.36781978607177734,0.040592690897777194,0.01751668277024035,0.023076008127536844,0.038333568104430484,0.00225912279334671,-0.001659399701714777,0.03999296780614526,-0.016916959678608415,0.019176082471955125
30,0.379807710647583,0.02961878816266515,0.00651222336761929,0.02310656479504586,0.0035804914551958687,0.02603829670746928,-0.01793997390007421,0.02152046535527008,0.0015860994397757788,0.0244521972676935
31,0.39189958572387695,-0.00910227931805848,-0.0055369787643082535,-0.0035653005537502266,-0.017954837658948578,0.008852558340890097,-0.03526529082774013,0.017310453168791554,-0.02087575372254178,0.029728312063431878
32,0.403975248336792,0.02654547847627705,0.015475620998303465,0.011069857477973587,0.004807188157449448,0.021738290318827604,-0.009582032065622309,0.014389220223071757,-0.0033193627450981704,0.025057653063925774
33,0.41606926918029785,-0.01470251929421569,-0.020556070775180825,0.005853551480965136,-0.04959901099922485,0.03489649170500916,-0.04379735645040978,-0.005801654548815064,0.0116552060297802,0.023241285675228956
34,0.4306457042694092,0.013676688459969139,0.0033029916005656024,0.010373696859403538,-0.013537546620561842,0.02721423508053098,-0.03256637211036504,0.019028825489803197,-0.00865512863039966,0.03586936371093064
35,0.44775938987731934,-0.005195629875921454,-0.013265157745801096,0.00806952786987964,-0.019388188220088177,0.014192558344166724,-0.02664616331096161,0.007257975090873433,0.0008115527790062078,0.013381005565160515
36,0.45980405807495117,0.02926636106272462,0.03351574169207621,-0.004249380629351594,0.01263932879307323,0.016627032269651388,-0.0020076472781502728,0.014646976071223504,-0.018896356700575098,0.035523388970226485
37,0.4719843864440918,0.016453704804944333,0.021552465036391875,-0.005098760231447544,-0.01156062069669756,0.02801432550164189,-0.019420026099925068,0.007859405403227509,-0.012958165634675053,0.040972491136316944
38,0.48409247398376465,0.05417061218224899,0.034095502158945794,0.020075110023303193,0.040513372529648504,0.013657239652600484,0.007307975391499243,0.03320539713814926,-0.01313028711484607,0.026787526767446553
39,0.496166467666626,-0.0029393185470458737,0.013250333604742912,-0.016189652151788785,-0.031235638248923493,0.02829631970187762,-0.03247931021625617,0.0012436719673326777,-0.017433324119121463,0.04572964382099908
40,0.5082247257232666,0.017611346691743933,0.004727107470228399,0.012884239221515536,-0.0030582803035434977,0.020669626995287432,-0.013151569724086144,0.010093289420542646,0.002790949800972889,0.017878677194314543
41,0.5203185081481934,0.040621089814078505,0.024570084465695037,0.016051005348383468,-0.00023879910501167084,0.040859888919090176,-0.02090007829977593,0.020661279194764258,-0.004610273846380789,0.045470162765470966
42,0.5324404239654541,0.029709695989712393,0.01552417061236467,0.014185525377347727,-0.024827356426615568,0.05453705241632796,-0.02864858687546571,0.0038212304488501442,0.010364294928497582,0.04417275748783038
43,0.5924952030181885,-0.0201888232981512,-0.008225669720892323,-0.01196315357725888,-0.04090997075921183,0.02072114746106063,-0.0363970954511555,-0.004512875308056331,-0.0074502782692025486,0.028171425730263176
44,0.6045284271240234,0.02836278384612284,0.014999274557209856,0.013363509288912983,0.029465658202287845,-0.001102874356165004,-0.0030523900074567608,0.032518048209744604,-0.01915453892083162,0.018051664564666618
45,0.6191065311431885,0.005046790003159517,0.0016219838652686384,0.0034248061378908774,-0.019367609215038925,0.024414399218198442,-0.025079049217001877,0.005711440001962953,-0.0022866338640720758,0.026701033082270516
46,0.631216287612915,0.029015266863736053,0.00702834443401135,0.021986922429724703,0.0036606936809549934,0.02535457318278106,-0.01837528337061858,0.022035977051573574,-4.905462184887099e-05,0.02540362780462993
47,0.6433117389678955,0.039130028035495784,0.0026012566399139826,0.0365287713955818,0.00268357711876642,0.036446450916729364,-0.020813016405667052,0.023496593524433472,0.013032177871148328,0.023414273045581035
48,0.6554217338562012,0.003950823341062143,-0.0006984462748455891,0.00464926961590773,-0.04219417688773739,0.04614500022879953,-0.03604884787472,-0.0061453290130173924,0.010794598628925123,0.03535040159987441
49,0.667471170425415,0.007635417387980077,0.008255608158142996,-0.0006201907701629192,0.0031802780811011444,0.004455139306878932,-0.0026170805369123908,0.005797358618013535,-0.006417549388176454,0.010872688695055387
50,0.6795294284820557,-0.0025159855835571177,0.002115376574347294,-0.0046313621579044065,-0.04356218783787566,0.04104620225431854,-0.028996834451901207,-0.01456535338597445,0.009933991228070043,0.0311122110262485
51,0.6916306018829346,0.011690522632481156,0.013844741576481096,-0.00215421894399994,-0.01097668507857526,0.022667207711056417,-0.0076666703952270815,-0.0033100146833481797,0.0011557957393482394,0.021511411971708177
52,0.7036895751953125,-0.004142799363471596,-0.00877657745957243,0.004633778096100831,-0.024819353480207525,0.02067655411673593,-0.028039153616703595,0.0032198001364960684,0.001413977959604763,0.019262576157131166
53,0.7157371044158936,0.010256872309003323,0.008629108782393462,0.0016277635266098594,-0.025379625782463097,0.03563649809146642,-0.02490492542878413,-0.00047470035367896664,0.002102463880288826,0.033534034211177594
54,0.7277982234954834,-0.002669031937190678,-0.023174872033026185,0.020505840095835504,-0.0012729068084361347,-0.0013961251287545433,-0.03422054809843365,0.03294764128999751,-0.012441801194162007,0.011045676065407463
55,0.7398676872253418,0.05705764989559764,0.03411482126266219,0.022942828632935456,0.026719346799486687,0.030338303096110956,0.010268079791200958,0.01645126700828573,0.006491561624649728,0.02384674147146123
56,0.7519989013671875,0.004025710848911963,0.0036380444441607776,0.00038766640475118574,-0.00015402376701937823,0.004179734615931342,-0.020987140193884802,0.020833116426865424,-0.020445450022114238,0.02462518463804558
57,0.7640719413757324,0.00017267240908402232,-0.01448856993478801,0.014661242343872033,-0.00016757034204017973,0.00034024275112420205,-0.028561524981356837,0.028393954639316658,-0.013732712295444625,0.014072955046568827
58,0.77616286277771,0.01585356024673719,0.0022809772285725116,0.013572583018164674,-0.01994943103872334,0.03580299128546053,-0.03012863907531657,0.010179208036593229,0.003393374981571444,0.03240961630388908
59,0.7882246971130371,0.00866569141019843,-0.00918164592929143,0.01784733733948986,-0.0098165779733674,0.01848226938356583,-0.03709359060402649,0.02727701263065909,-0.00942967529116923,0.02791194467473506
60,0.8002984523773193,0.004515821364802462,-0.008730994817560515,0.013246816182362977,-0.03529782204252498,0.039813643407327445,-0.03430760999254252,-0.0009902120499824599,0.014237028232345437,0.02557661517498201
61,0.8124403953552246,-0.003410404432217542,-0.011913078483223236,0.008502674051005693,-0.025982026611196765,0.022571622178979223,-0.031521629381058555,0.005539602769861788,0.002963071281143905,0.01960855089783532
62,0.8725659847259521,0.0012460370645103209,-0.009040604186563227,0.010286641251073548,-0.009105392967417317,0.010351430031927638,-0.028735648769574587,0.01963025580215727,-0.009343614551083722,0.01969504458301136
63,0.8847789764404297,0.03159926108086287,0.03340468909540316,-0.001805428014540287,0.0014226887827501807,0.03017657229811269,0.007482099179716991,-0.0060594103969668104,0.0042539823824265235,0.025922589915686165
64,0.8969004154205322,-0.009824971466390789,-0.023312062240609655,0.013487090774218866,-0.018900115197183688,0.0090751437307929,-0.028735648769574587,0.009835533572390899,0.003651557201827968,0.005423586528964932
65,0.9090626239776611,-0.030167763173718904,-0.006752561955620597,-0.023415201218098307,-0.02363267150999416,-0.006535091663724745,-0.022728378076062282,-0.0009042934339318778,-0.02251090778416643,0.015975816120441685
66,0.9211492538452148,0.021930744167034225,0.01035077570608432,0.011579968460949906,0.0185126631920867,0.0034180809749475268,0.00034302386278932455,0.018169639329297375,-0.00658967086834747,0.010007751843294997
67,0.9332437515258789,-0.03772996290075697,-0.01836658054438889,-0.01936338235636808,-0.0314992832490454,-0.0062306796517115695,-0.026384977628634988,-0.005114305620410407,-0.014249076735957671,0.008018397084246101
68,0.9453001022338867,0.008890066985978873,0.026757301860755638,-0.017867234874776764,-0.028969290214632692,0.037859357200611565,-0.003835947054436627,-0.025133343160196064,0.007266108285419299,0.030593248915192266
69,0.9548442363739014,-0.01670875941087755,-0.029335242784241336,0.012626483373363789,-0.027345118925744462,0.010636359514866913,-0.03718065249813536,0.009835533572390899,0.002790949800972889,0.007845409713894023
70,0.9669532775878906,-0.02031215258098269,0.015291269449294686,-0.035603422030277374,-0.031817007841264414,0.011504855260281725,-0.011323269947799789,-0.020493737893464623,-0.01510968413681275,0.026614539397094475
71,0.97902512550354,-0.009948075115957116,-0.0019492584199937019,-0.007998816695963416,-0.03677347389182137,0.02682539877586425,-0.028909772557792333,-0.007863701334029038,-0.00013511536193437887,0.02696051413779863
72,0.9911024570465088,-0.025657242124465678,-0.013766505379939441,-0.011890736744526237,-0.020211932760786956,-0.005445309363678723,-0.023947244593586516,0.003735311832799562,-0.0156260485773258,0.010180739213647075
73,1.0032498836517334,0.034686918477570675,0.019563110277342977,0.015123808200227698,-0.010529597304090574,0.04521651578166125,-0.019420026099925068,0.008890428795834494,0.0062333794043932045,0.038983136377268045
74,1.0153334140777588,0.032510569998533814,-0.02178914251602594,0.054299712514559756,0.0026808383313063414,0.02982973166722747,-0.04719277032065587,0.04987360865196221,0.004426103862597539,0.02540362780462993
75,1.0275335311889648,0.010086657781593296,0.002472589566323038,0.007614068215270258,0.008443381466651603,0.0016432763149416933,-0.014022188665174882,0.022465570131826484,-0.014851501916556226,0.01649477823149792
76,1.039621353149414,0.036910529800818485,-0.0035635338553787407,0.040474063656197226,-0.006044161813549824,0.04295469161436831,-0.03770302386278861,0.03165886204923878,0.00881520160695844,0.034139490007409866
77,1.0517289638519287,0.023038148855195176,0.008639778824732214,0.014398370030462963,0.021211927432819192,0.0018262214223759843,-0.01001734153616668,0.03122926896898587,-0.01683089893852291,0.018657120360898893
78,1.0638270378112793,0.04471172999492008,0.03915715033223514,0.005554579662684947,0.019809445379253474,0.02490228461566661,0.0009524571215514424,0.01885698825770203,-0.013302408595017084,0.0382046932106837
79,1.0759084224700928,0.02683933713896644,-0.011999003959466435,0.03883834109843287,0.0005679690264914355,0.026271368112475005,-0.03143456748694968,0.032002536513441114,0.00683580458499176,0.019435563527483244
80,1.0880358219146729,0.007558213276093802,0.01944624966395645,-0.01188803638786265,0.004535367449240799,0.0030228458268530024,0.0024325093214023,0.0021028581278384998,-0.013990894515701149,0.01701374034255415
81,1.1001076698303223,0.027665895782777145,-0.0013057326252614854,0.02897162840803863,-0.009374754357830679,0.037040650140607825,-0.023076625652497778,0.013701871294667099,0.015269757113371533,0.021770893027236293
82,1.1121842861175537,0.0194015600181563,0.01820907453319638,0.001192485484959922,0.014193521305034353,0.005208038713121949,0.011661070096942942,0.002532451208091411,-0.0013399657231314892,0.006548004436253438
83,1.124248743057251,-0.002335515552068526,0.01779800761998642,-0.020133523172054954,-0.03259564625265371,0.030260130700585183,-0.024817863534675258,-0.007777782717978455,-0.012355740454076497,0.04261587115466168
84,1.1363658905029297,0.04034386203010521,0.006755794573028027,0.03358806745707719,0.011968504042520756,0.028375357987584456,-0.020377706935122683,0.03234621097764344,0.0012418564794337472,0.02713350150815071
85,1.148489236831665,-0.012606067054305236,0.004267807297119843,-0.016873874351425077,-0.005343957356839163,-0.007262109697466072,-0.004010070842654374,-0.0013338865141847888,-0.01553998783724029,0.008277878139774217
86,1.1606025695800781,0.014177756793537239,-0.0052468144264070475,0.019424571219944283,-0.02029882189321713,0.03447657868675437,-0.03056394854586094,0.01026512665264381,0.009159444567300473,0.025317134119453893
87,1.1726667881011963,0.01403327254157668,0.007875414954083624,0.006157857587493055,0.023734090282502555,-0.009700817740925875,0.005392613721104016,0.018341476561398538,-0.012183618973905483,0.002482801232979608
88,1.1847336292266846,-0.020279071516961164,-0.025098188628481097,0.004819117111519934,-0.042125407442561186,0.02184633592560002,-0.03735477628635311,-0.004770631156208078,0.009589748267728012,0.01225658765787201
89,1.1968684196472168,0.024117096783501046,0.012597464612315108,0.011519632171185942,-0.010620261794053024,0.03473735857755407,-0.013238631618195017,0.002618369824141993,0.00890126234704395,0.025836096230510124
90,1.208927869796753,-0.02869366829905211,0.010345787753073921,-0.03903945605212603,-0.03803401670448021,0.009340348405428096,-0.013673941088739386,-0.02436007561574082,-0.014679380436385212,0.024019728841813307
91,1.2209744453430176,0.02057217797906559,-0.000753688468715704,0.021325866447781294,-0.025806759544920725,0.046378937523986315,-0.03126044369873193,0.005453684153811206,0.015872182293970086,0.03050675523001623
92,1.233031988143921,0.017089434960132342,0.02027823039761241,-0.003188795437480069,-0.004810153211603002,0.021899588171735342,-0.0026170805369123908,-0.002193072674690611,-0.0009957227627894578,0.0228953109345248
